Radius  T_Mean T_Max T_Min 
1.2200   1.0000  1.0000  1.0000 
1.2356   0.7865  0.9973  0.6172 
1.2512   0.6002  0.9946  0.3264 
1.2669   0.4525  0.9920  0.1547 
1.2825   0.3442  0.9893  0.0708 
1.2981   0.2692  0.9868  0.0411 
1.3137   0.2195  0.9842  0.0345 
1.3294   0.1874  0.9817  0.0361 
1.3450   0.1671  0.9790  0.0368 
1.3606   0.1546  0.9763  0.0368 
1.3762   0.1470  0.9736  0.0363 
1.3919   0.1426  0.9710  0.0358 
1.4075   0.1403  0.9688  0.0353 
1.4231   0.1394  0.9666  0.0348 
1.4388   0.1393  0.9643  0.0343 
1.4544   0.1398  0.9620  0.0337 
1.4700   0.1406  0.9596  0.0331 
1.4856   0.1417  0.9572  0.0326 
1.5013   0.1429  0.9548  0.0320 
1.5169   0.1442  0.9525  0.0315 
1.5325   0.1454  0.9502  0.0309 
1.5481   0.1466  0.9478  0.0303 
1.5638   0.1478  0.9452  0.0298 
1.5794   0.1488  0.9427  0.0292 
1.5950   0.1497  0.9413  0.0286 
1.6106   0.1506  0.9387  0.0280 
1.6263   0.1513  0.9356  0.0273 
1.6419   0.1519  0.9332  0.0267 
1.6575   0.1524  0.9317  0.0260 
1.6731   0.1528  0.9299  0.0254 
1.6888   0.1531  0.9274  0.0247 
1.7044   0.1533  0.9253  0.0241 
1.7200   0.1534  0.9231  0.0234 
1.7356   0.1535  0.9207  0.0227 
1.7513   0.1536  0.9177  0.0220 
1.7669   0.1536  0.9166  0.0213 
1.7825   0.1536  0.9148  0.0207 
1.7981   0.1536  0.9122  0.0201 
1.8138   0.1536  0.9102  0.0194 
1.8294   0.1536  0.9084  0.0187 
1.8450   0.1536  0.9065  0.0179 
1.8606   0.1537  0.9045  0.0172 
1.8763   0.1539  0.9023  0.0165 
1.8919   0.1542  0.9001  0.0157 
1.9075   0.1547  0.8979  0.0150 
1.9231   0.1554  0.8957  0.0143 
1.9388   0.1564  0.8938  0.0136 
1.9544   0.1577  0.8920  0.0128 
1.9700   0.1595  0.8900  0.0120 
1.9856   0.1618  0.8880  0.0113 
2.0013   0.1646  0.8860  0.0106 
2.0169   0.1680  0.8843  0.0098 
2.0325   0.1720  0.8826  0.0090 
2.0481   0.1764  0.8808  0.0083 
2.0638   0.1811  0.8789  0.0075 
2.0794   0.1857  0.8769  0.0068 
2.0950   0.1895  0.8746  0.0060 
2.1106   0.1916  0.8724  0.0053 
2.1263   0.1909  0.8709  0.0045 
2.1419   0.1856  0.8729  0.0037 
2.1575   0.1736  0.8794  0.0030 
2.1731   0.1518  0.8801  0.0022 
2.1888   0.1162  0.8077  0.0015 
2.2044   0.0643  0.5310  0.0007 
2.2200   0.0000  0.0000  0.0000 
