Radius  T_Mean T_Max T_Min 
1.2200   1.0000  1.0000  1.0000 
1.2356   0.7867  0.9975  0.5905 
1.2512   0.6029  0.9949  0.2932 
1.2669   0.4601  0.9924  0.1329 
1.2825   0.3578  0.9899  0.0650 
1.2981   0.2886  0.9874  0.0457 
1.3137   0.2435  0.9850  0.0457 
1.3294   0.2148  0.9827  0.0471 
1.3450   0.1970  0.9803  0.0478 
1.3606   0.1863  0.9780  0.0474 
1.3762   0.1803  0.9757  0.0470 
1.3919   0.1773  0.9734  0.0465 
1.4075   0.1763  0.9711  0.0459 
1.4231   0.1766  0.9688  0.0454 
1.4388   0.1777  0.9666  0.0447 
1.4544   0.1795  0.9643  0.0441 
1.4700   0.1815  0.9621  0.0435 
1.4856   0.1838  0.9599  0.0429 
1.5013   0.1862  0.9577  0.0422 
1.5169   0.1886  0.9555  0.0415 
1.5325   0.1910  0.9534  0.0407 
1.5481   0.1933  0.9512  0.0399 
1.5638   0.1954  0.9491  0.0391 
1.5794   0.1975  0.9469  0.0384 
1.5950   0.1994  0.9448  0.0376 
1.6106   0.2011  0.9427  0.0368 
1.6263   0.2027  0.9406  0.0360 
1.6419   0.2040  0.9385  0.0353 
1.6575   0.2053  0.9365  0.0345 
1.6731   0.2063  0.9344  0.0337 
1.6888   0.2072  0.9323  0.0328 
1.7044   0.2080  0.9303  0.0320 
1.7200   0.2086  0.9276  0.0312 
1.7356   0.2090  0.9256  0.0303 
1.7513   0.2093  0.9237  0.0294 
1.7669   0.2095  0.9217  0.0285 
1.7825   0.2096  0.9198  0.0277 
1.7981   0.2096  0.9178  0.0266 
1.8138   0.2095  0.9159  0.0257 
1.8294   0.2093  0.9140  0.0249 
1.8450   0.2090  0.9121  0.0240 
1.8606   0.2088  0.9102  0.0230 
1.8763   0.2085  0.9083  0.0221 
1.8919   0.2082  0.9064  0.0211 
1.9075   0.2081  0.9046  0.0201 
1.9231   0.2080  0.9027  0.0191 
1.9388   0.2082  0.9009  0.0182 
1.9544   0.2087  0.8990  0.0172 
1.9700   0.2096  0.8972  0.0163 
1.9856   0.2110  0.8954  0.0153 
2.0013   0.2131  0.8937  0.0142 
2.0169   0.2157  0.8919  0.0132 
2.0325   0.2190  0.8902  0.0122 
2.0481   0.2227  0.8884  0.0111 
2.0638   0.2266  0.8867  0.0101 
2.0794   0.2301  0.8850  0.0091 
2.0950   0.2324  0.8834  0.0081 
2.1106   0.2324  0.8817  0.0071 
2.1263   0.2286  0.8800  0.0060 
2.1419   0.2192  0.8785  0.0050 
2.1575   0.2018  0.8805  0.0040 
2.1731   0.1735  0.8908  0.0030 
2.1888   0.1305  0.8021  0.0020 
2.2044   0.0713  0.5285  0.0010 
2.2200   0.0000  0.0000  0.0000 
