Radius  T_Mean T_Max T_Min 
1.2200   1.0000  1.0000  1.0000 
1.2356   0.8011  0.9991  0.6483 
1.2512   0.6304  0.9980  0.3846 
1.2669   0.4996  0.9970  0.2303 
1.2825   0.4078  0.9960  0.1554 
1.2981   0.3473  0.9950  0.1289 
1.3137   0.3091  0.9940  0.1224 
1.3294   0.2852  0.9931  0.1240 
1.3450   0.2702  0.9921  0.1233 
1.3606   0.2606  0.9911  0.1220 
1.3762   0.2541  0.9902  0.1207 
1.3919   0.2496  0.9893  0.1195 
1.4075   0.2464  0.9883  0.1182 
1.4231   0.2441  0.9875  0.1170 
1.4388   0.2425  0.9865  0.1158 
1.4544   0.2415  0.9857  0.1146 
1.4700   0.2410  0.9848  0.1133 
1.4856   0.2408  0.9839  0.1120 
1.5013   0.2410  0.9830  0.1107 
1.5169   0.2414  0.9822  0.1094 
1.5325   0.2419  0.9813  0.1080 
1.5481   0.2426  0.9805  0.1067 
1.5638   0.2433  0.9796  0.1051 
1.5794   0.2441  0.9788  0.1037 
1.5950   0.2449  0.9779  0.1023 
1.6106   0.2458  0.9771  0.1007 
1.6263   0.2467  0.9762  0.0991 
1.6419   0.2476  0.9753  0.0975 
1.6575   0.2485  0.9744  0.0959 
1.6731   0.2495  0.9735  0.0942 
1.6888   0.2505  0.9726  0.0927 
1.7044   0.2514  0.9716  0.0910 
1.7200   0.2523  0.9706  0.0890 
1.7356   0.2532  0.9696  0.0871 
1.7513   0.2539  0.9686  0.0853 
1.7669   0.2544  0.9675  0.0832 
1.7825   0.2548  0.9663  0.0810 
1.7981   0.2550  0.9651  0.0788 
1.8138   0.2550  0.9638  0.0766 
1.8294   0.2549  0.9626  0.0744 
1.8450   0.2547  0.9615  0.0720 
1.8606   0.2545  0.9603  0.0697 
1.8763   0.2544  0.9590  0.0674 
1.8919   0.2543  0.9575  0.0649 
1.9075   0.2542  0.9559  0.0624 
1.9231   0.2540  0.9541  0.0598 
1.9388   0.2538  0.9521  0.0570 
1.9544   0.2533  0.9498  0.0542 
1.9700   0.2526  0.9472  0.0514 
1.9856   0.2516  0.9443  0.0484 
2.0013   0.2501  0.9409  0.0455 
2.0169   0.2483  0.9370  0.0424 
2.0325   0.2460  0.9325  0.0393 
2.0481   0.2434  0.9272  0.0362 
2.0638   0.2404  0.9210  0.0331 
2.0794   0.2369  0.9138  0.0299 
2.0950   0.2327  0.9053  0.0266 
2.1106   0.2272  0.8952  0.0233 
2.1263   0.2196  0.8832  0.0201 
2.1419   0.2084  0.8690  0.0167 
2.1575   0.1911  0.8561  0.0134 
2.1731   0.1647  0.8556  0.0099 
2.1888   0.1245  0.7714  0.0066 
2.2044   0.0683  0.5150  0.0033 
2.2200   0.0000  0.0000  0.0000 
