Radius  T_Mean T_Max T_Min 
1.2200   1.0000  1.0000  1.0000 
1.2356   0.8142  0.9978  0.6886 
1.2512   0.6484  0.9955  0.4351 
1.2669   0.5118  0.9932  0.2594 
1.2825   0.4058  0.9910  0.1493 
1.2981   0.3277  0.9888  0.0918 
1.3137   0.2725  0.9867  0.0641 
1.3294   0.2346  0.9846  0.0544 
1.3450   0.2095  0.9826  0.0506 
1.3606   0.1932  0.9806  0.0500 
1.3762   0.1830  0.9786  0.0495 
1.3919   0.1769  0.9766  0.0487 
1.4075   0.1736  0.9746  0.0479 
1.4231   0.1722  0.9726  0.0472 
1.4388   0.1721  0.9707  0.0464 
1.4544   0.1728  0.9688  0.0456 
1.4700   0.1741  0.9669  0.0448 
1.4856   0.1757  0.9650  0.0441 
1.5013   0.1776  0.9631  0.0433 
1.5169   0.1796  0.9612  0.0425 
1.5325   0.1817  0.9594  0.0417 
1.5481   0.1837  0.9575  0.0408 
1.5638   0.1856  0.9557  0.0400 
1.5794   0.1875  0.9538  0.0391 
1.5950   0.1892  0.9520  0.0383 
1.6106   0.1908  0.9502  0.0375 
1.6263   0.1923  0.9484  0.0365 
1.6419   0.1936  0.9466  0.0357 
1.6575   0.1947  0.9448  0.0348 
1.6731   0.1957  0.9430  0.0339 
1.6888   0.1965  0.9412  0.0330 
1.7044   0.1972  0.9391  0.0321 
1.7200   0.1978  0.9370  0.0311 
1.7356   0.1983  0.9343  0.0302 
1.7513   0.1987  0.9327  0.0293 
1.7669   0.1990  0.9310  0.0283 
1.7825   0.1993  0.9294  0.0274 
1.7981   0.1996  0.9278  0.0265 
1.8138   0.1999  0.9262  0.0255 
1.8294   0.2003  0.9246  0.0245 
1.8450   0.2007  0.9230  0.0235 
1.8606   0.2012  0.9214  0.0225 
1.8763   0.2018  0.9198  0.0216 
1.8919   0.2026  0.9182  0.0206 
1.9075   0.2036  0.9166  0.0196 
1.9231   0.2048  0.9151  0.0186 
1.9388   0.2062  0.9135  0.0176 
1.9544   0.2079  0.9119  0.0166 
1.9700   0.2098  0.9104  0.0156 
1.9856   0.2119  0.9088  0.0146 
2.0013   0.2143  0.9073  0.0136 
2.0169   0.2167  0.9057  0.0127 
2.0325   0.2190  0.9042  0.0116 
2.0481   0.2211  0.9026  0.0106 
2.0638   0.2225  0.9011  0.0097 
2.0794   0.2228  0.8996  0.0087 
2.0950   0.2213  0.8980  0.0077 
2.1106   0.2173  0.8965  0.0067 
2.1263   0.2096  0.8951  0.0057 
2.1419   0.1969  0.8965  0.0047 
2.1575   0.1772  0.8932  0.0038 
2.1731   0.1483  0.8563  0.0028 
2.1888   0.1082  0.7118  0.0019 
2.2044   0.0575  0.4277  0.0009 
2.2200   0.0000  0.0000  0.0000 
