Radius  T_Mean T_Max T_Min 
1.2200   1.0000  1.0000  1.0000 
1.2356   0.8102  0.9981  0.6550 
1.2512   0.6439  0.9960  0.3841 
1.2669   0.5114  0.9940  0.2134 
1.2825   0.4127  0.9921  0.1207 
1.2981   0.3431  0.9902  0.0761 
1.3137   0.2959  0.9883  0.0591 
1.3294   0.2648  0.9864  0.0565 
1.3450   0.2448  0.9846  0.0564 
1.3606   0.2322  0.9827  0.0552 
1.3762   0.2245  0.9810  0.0539 
1.3919   0.2201  0.9791  0.0527 
1.4075   0.2179  0.9774  0.0515 
1.4231   0.2171  0.9756  0.0503 
1.4388   0.2173  0.9738  0.0491 
1.4544   0.2181  0.9721  0.0479 
1.4700   0.2193  0.9704  0.0468 
1.4856   0.2208  0.9686  0.0458 
1.5013   0.2224  0.9669  0.0447 
1.5169   0.2241  0.9652  0.0437 
1.5325   0.2258  0.9635  0.0426 
1.5481   0.2275  0.9618  0.0415 
1.5638   0.2290  0.9601  0.0404 
1.5794   0.2305  0.9584  0.0393 
1.5950   0.2318  0.9568  0.0383 
1.6106   0.2330  0.9551  0.0373 
1.6263   0.2340  0.9535  0.0363 
1.6419   0.2348  0.9518  0.0353 
1.6575   0.2355  0.9502  0.0343 
1.6731   0.2361  0.9485  0.0334 
1.6888   0.2365  0.9469  0.0324 
1.7044   0.2367  0.9453  0.0313 
1.7200   0.2369  0.9426  0.0303 
1.7356   0.2369  0.9410  0.0293 
1.7513   0.2369  0.9396  0.0283 
1.7669   0.2368  0.9380  0.0273 
1.7825   0.2367  0.9366  0.0264 
1.7981   0.2366  0.9350  0.0254 
1.8138   0.2366  0.9336  0.0244 
1.8294   0.2365  0.9321  0.0234 
1.8450   0.2366  0.9306  0.0224 
1.8606   0.2368  0.9291  0.0214 
1.8763   0.2370  0.9277  0.0204 
1.8919   0.2375  0.9262  0.0194 
1.9075   0.2381  0.9248  0.0184 
1.9231   0.2388  0.9233  0.0175 
1.9388   0.2398  0.9219  0.0165 
1.9544   0.2409  0.9205  0.0156 
1.9700   0.2423  0.9190  0.0146 
1.9856   0.2438  0.9176  0.0137 
2.0013   0.2454  0.9162  0.0127 
2.0169   0.2470  0.9148  0.0118 
2.0325   0.2485  0.9133  0.0109 
2.0481   0.2497  0.9119  0.0099 
2.0638   0.2502  0.9105  0.0090 
2.0794   0.2496  0.9090  0.0081 
2.0950   0.2472  0.9076  0.0072 
2.1106   0.2421  0.9061  0.0062 
2.1263   0.2332  0.9048  0.0053 
2.1419   0.2189  0.9059  0.0044 
2.1575   0.1970  0.9048  0.0035 
2.1731   0.1650  0.8686  0.0026 
2.1888   0.1206  0.7286  0.0017 
2.2044   0.0642  0.4405  0.0009 
2.2200   0.0000  0.0000  0.0000 
