Radius  T_Mean T_Max T_Min 
1.2200   1.0000  1.0000  1.0000 
1.2356   0.8109  0.9970  0.6597 
1.2512   0.6428  0.9938  0.3876 
1.2669   0.5051  0.9908  0.2102 
1.2825   0.3991  0.9878  0.1074 
1.2981   0.3215  0.9848  0.0559 
1.3137   0.2671  0.9819  0.0352 
1.3294   0.2304  0.9790  0.0302 
1.3450   0.2066  0.9761  0.0301 
1.3606   0.1920  0.9733  0.0315 
1.3762   0.1838  0.9704  0.0321 
1.3919   0.1800  0.9676  0.0326 
1.4075   0.1792  0.9647  0.0327 
1.4231   0.1804  0.9619  0.0327 
1.4388   0.1830  0.9591  0.0326 
1.4544   0.1864  0.9564  0.0325 
1.4700   0.1904  0.9538  0.0323 
1.4856   0.1946  0.9512  0.0322 
1.5013   0.1990  0.9487  0.0319 
1.5169   0.2034  0.9461  0.0315 
1.5325   0.2078  0.9436  0.0312 
1.5481   0.2120  0.9410  0.0309 
1.5638   0.2161  0.9385  0.0306 
1.5794   0.2200  0.9360  0.0302 
1.5950   0.2237  0.9335  0.0298 
1.6106   0.2272  0.9310  0.0293 
1.6263   0.2304  0.9285  0.0288 
1.6419   0.2334  0.9260  0.0283 
1.6575   0.2362  0.9236  0.0278 
1.6731   0.2388  0.9211  0.0272 
1.6888   0.2411  0.9186  0.0267 
1.7044   0.2433  0.9148  0.0261 
1.7200   0.2453  0.9130  0.0255 
1.7356   0.2472  0.9104  0.0247 
1.7513   0.2489  0.9079  0.0241 
1.7669   0.2505  0.9054  0.0235 
1.7825   0.2521  0.9029  0.0228 
1.7981   0.2536  0.9004  0.0221 
1.8138   0.2551  0.8979  0.0213 
1.8294   0.2566  0.8954  0.0206 
1.8450   0.2582  0.8929  0.0198 
1.8606   0.2599  0.8905  0.0191 
1.8763   0.2616  0.8881  0.0184 
1.8919   0.2636  0.8856  0.0177 
1.9075   0.2656  0.8833  0.0169 
1.9231   0.2679  0.8809  0.0161 
1.9388   0.2703  0.8785  0.0152 
1.9544   0.2728  0.8763  0.0143 
1.9700   0.2754  0.8741  0.0135 
1.9856   0.2779  0.8718  0.0126 
2.0013   0.2803  0.8696  0.0118 
2.0169   0.2822  0.8674  0.0109 
2.0325   0.2835  0.8652  0.0101 
2.0481   0.2838  0.8629  0.0093 
2.0638   0.2825  0.8607  0.0084 
2.0794   0.2792  0.8584  0.0076 
2.0950   0.2730  0.8560  0.0067 
2.1106   0.2632  0.8536  0.0059 
2.1263   0.2486  0.8517  0.0050 
2.1419   0.2281  0.8523  0.0041 
2.1575   0.2001  0.8386  0.0033 
2.1731   0.1631  0.7847  0.0025 
2.1888   0.1163  0.6386  0.0016 
2.2044   0.0607  0.3738  0.0008 
2.2200   0.0000  0.0000  0.0000 
