Radius  T_Mean T_Max T_Min 
1.2200   1.0000  1.0000  1.0000 
1.2356   0.8148  0.9976  0.6915 
1.2512   0.6492  0.9952  0.4389 
1.2669   0.5122  0.9928  0.2625 
1.2825   0.4054  0.9904  0.1522 
1.2981   0.3263  0.9881  0.0935 
1.3137   0.2700  0.9858  0.0640 
1.3294   0.2313  0.9835  0.0531 
1.3450   0.2054  0.9813  0.0489 
1.3606   0.1886  0.9790  0.0479 
1.3762   0.1780  0.9769  0.0475 
1.3919   0.1717  0.9747  0.0468 
1.4075   0.1682  0.9726  0.0461 
1.4231   0.1667  0.9705  0.0454 
1.4388   0.1665  0.9685  0.0447 
1.4544   0.1671  0.9665  0.0439 
1.4700   0.1683  0.9645  0.0432 
1.4856   0.1699  0.9625  0.0425 
1.5013   0.1717  0.9605  0.0417 
1.5169   0.1736  0.9586  0.0409 
1.5325   0.1756  0.9566  0.0401 
1.5481   0.1775  0.9547  0.0393 
1.5638   0.1794  0.9528  0.0385 
1.5794   0.1812  0.9509  0.0377 
1.5950   0.1828  0.9490  0.0369 
1.6106   0.1843  0.9471  0.0361 
1.6263   0.1857  0.9452  0.0352 
1.6419   0.1869  0.9433  0.0343 
1.6575   0.1880  0.9415  0.0335 
1.6731   0.1890  0.9396  0.0327 
1.6888   0.1898  0.9378  0.0318 
1.7044   0.1904  0.9348  0.0309 
1.7200   0.1910  0.9332  0.0300 
1.7356   0.1915  0.9313  0.0291 
1.7513   0.1919  0.9294  0.0282 
1.7669   0.1922  0.9275  0.0273 
1.7825   0.1925  0.9256  0.0264 
1.7981   0.1928  0.9238  0.0255 
1.8138   0.1932  0.9219  0.0246 
1.8294   0.1936  0.9201  0.0236 
1.8450   0.1940  0.9183  0.0227 
1.8606   0.1946  0.9164  0.0218 
1.8763   0.1953  0.9147  0.0208 
1.8919   0.1961  0.9129  0.0198 
1.9075   0.1972  0.9111  0.0189 
1.9231   0.1984  0.9094  0.0179 
1.9388   0.1999  0.9078  0.0170 
1.9544   0.2017  0.9062  0.0160 
1.9700   0.2037  0.9046  0.0150 
1.9856   0.2060  0.9030  0.0141 
2.0013   0.2084  0.9015  0.0131 
2.0169   0.2110  0.8999  0.0122 
2.0325   0.2135  0.8983  0.0112 
2.0481   0.2157  0.8967  0.0103 
2.0638   0.2173  0.8952  0.0093 
2.0794   0.2179  0.8936  0.0083 
2.0950   0.2167  0.8920  0.0074 
2.1106   0.2131  0.8905  0.0064 
2.1263   0.2058  0.8891  0.0055 
2.1419   0.1935  0.8894  0.0046 
2.1575   0.1744  0.8849  0.0036 
2.1731   0.1461  0.8481  0.0027 
2.1888   0.1067  0.7034  0.0018 
2.2044   0.0567  0.4215  0.0009 
2.2200   0.0000  0.0000  0.0000 
