Radius  T_Mean T_Max T_Min 
1.2200   1.0000  1.0000  1.0000 
1.2356   0.8141  0.9979  0.6715 
1.2512   0.6493  0.9957  0.4084 
1.2669   0.5151  0.9935  0.2348 
1.2825   0.4124  0.9913  0.1340 
1.2981   0.3379  0.9892  0.0823 
1.3137   0.2860  0.9872  0.0599 
1.3294   0.2510  0.9852  0.0547 
1.3450   0.2281  0.9832  0.0535 
1.3606   0.2136  0.9812  0.0538 
1.3762   0.2047  0.9793  0.0532 
1.3919   0.1997  0.9773  0.0525 
1.4075   0.1973  0.9754  0.0517 
1.4231   0.1967  0.9735  0.0509 
1.4388   0.1972  0.9716  0.0501 
1.4544   0.1986  0.9697  0.0494 
1.4700   0.2004  0.9679  0.0486 
1.4856   0.2026  0.9660  0.0478 
1.5013   0.2049  0.9642  0.0469 
1.5169   0.2074  0.9624  0.0460 
1.5325   0.2098  0.9606  0.0452 
1.5481   0.2122  0.9587  0.0443 
1.5638   0.2146  0.9569  0.0434 
1.5794   0.2168  0.9551  0.0425 
1.5950   0.2189  0.9533  0.0416 
1.6106   0.2209  0.9515  0.0407 
1.6263   0.2226  0.9498  0.0398 
1.6419   0.2242  0.9480  0.0388 
1.6575   0.2257  0.9462  0.0378 
1.6731   0.2269  0.9444  0.0368 
1.6888   0.2280  0.9427  0.0359 
1.7044   0.2289  0.9408  0.0349 
1.7200   0.2297  0.9378  0.0340 
1.7356   0.2303  0.9362  0.0330 
1.7513   0.2308  0.9346  0.0319 
1.7669   0.2313  0.9330  0.0309 
1.7825   0.2316  0.9314  0.0299 
1.7981   0.2318  0.9298  0.0288 
1.8138   0.2321  0.9282  0.0278 
1.8294   0.2323  0.9266  0.0267 
1.8450   0.2325  0.9251  0.0257 
1.8606   0.2328  0.9235  0.0246 
1.8763   0.2331  0.9219  0.0235 
1.8919   0.2336  0.9203  0.0225 
1.9075   0.2342  0.9188  0.0214 
1.9231   0.2349  0.9172  0.0203 
1.9388   0.2358  0.9157  0.0193 
1.9544   0.2369  0.9141  0.0182 
1.9700   0.2382  0.9126  0.0171 
1.9856   0.2396  0.9110  0.0160 
2.0013   0.2411  0.9095  0.0149 
2.0169   0.2425  0.9079  0.0138 
2.0325   0.2438  0.9064  0.0127 
2.0481   0.2446  0.9049  0.0116 
2.0638   0.2447  0.9033  0.0105 
2.0794   0.2434  0.9018  0.0095 
2.0950   0.2403  0.9003  0.0084 
2.1106   0.2344  0.8987  0.0073 
2.1263   0.2247  0.8974  0.0062 
2.1419   0.2097  0.8999  0.0052 
2.1575   0.1875  0.8969  0.0041 
2.1731   0.1560  0.8562  0.0031 
2.1888   0.1134  0.7141  0.0020 
2.2044   0.0600  0.4286  0.0010 
2.2200   0.0000  0.0000  0.0000 
