Radius  T_Mean T_Max T_Min 
1.2200   1.0000  1.0000  1.0000 
1.2356   0.8136  0.9980  0.6832 
1.2512   0.6478  0.9958  0.4269 
1.2669   0.5119  0.9936  0.2520 
1.2825   0.4072  0.9916  0.1476 
1.2981   0.3306  0.9895  0.0911 
1.3137   0.2768  0.9875  0.0648 
1.3294   0.2402  0.9855  0.0559 
1.3450   0.2161  0.9836  0.0538 
1.3606   0.2004  0.9817  0.0530 
1.3762   0.1907  0.9798  0.0520 
1.3919   0.1850  0.9779  0.0512 
1.4075   0.1820  0.9761  0.0504 
1.4231   0.1808  0.9742  0.0496 
1.4388   0.1808  0.9724  0.0488 
1.4544   0.1817  0.9705  0.0480 
1.4700   0.1832  0.9687  0.0472 
1.4856   0.1850  0.9669  0.0464 
1.5013   0.1870  0.9651  0.0455 
1.5169   0.1892  0.9633  0.0446 
1.5325   0.1914  0.9615  0.0438 
1.5481   0.1936  0.9597  0.0429 
1.5638   0.1957  0.9580  0.0420 
1.5794   0.1977  0.9562  0.0411 
1.5950   0.1996  0.9545  0.0403 
1.6106   0.2013  0.9527  0.0394 
1.6263   0.2029  0.9510  0.0384 
1.6419   0.2043  0.9493  0.0375 
1.6575   0.2056  0.9476  0.0366 
1.6731   0.2067  0.9458  0.0357 
1.6888   0.2076  0.9441  0.0347 
1.7044   0.2084  0.9424  0.0337 
1.7200   0.2090  0.9404  0.0327 
1.7356   0.2096  0.9380  0.0318 
1.7513   0.2100  0.9364  0.0308 
1.7669   0.2103  0.9349  0.0298 
1.7825   0.2106  0.9333  0.0288 
1.7981   0.2109  0.9318  0.0278 
1.8138   0.2111  0.9302  0.0268 
1.8294   0.2114  0.9287  0.0258 
1.8450   0.2117  0.9271  0.0248 
1.8606   0.2121  0.9256  0.0238 
1.8763   0.2126  0.9241  0.0227 
1.8919   0.2133  0.9225  0.0217 
1.9075   0.2141  0.9210  0.0206 
1.9231   0.2151  0.9195  0.0196 
1.9388   0.2164  0.9180  0.0186 
1.9544   0.2178  0.9165  0.0175 
1.9700   0.2196  0.9150  0.0165 
1.9856   0.2215  0.9135  0.0154 
2.0013   0.2236  0.9120  0.0144 
2.0169   0.2258  0.9105  0.0133 
2.0325   0.2278  0.9090  0.0123 
2.0481   0.2296  0.9076  0.0112 
2.0638   0.2306  0.9061  0.0102 
2.0794   0.2305  0.9046  0.0091 
2.0950   0.2286  0.9031  0.0081 
2.1106   0.2241  0.9017  0.0070 
2.1263   0.2158  0.9004  0.0060 
2.1419   0.2023  0.9024  0.0050 
2.1575   0.1817  0.9004  0.0040 
2.1731   0.1518  0.8637  0.0030 
2.1888   0.1107  0.7195  0.0020 
2.2044   0.0587  0.4332  0.0010 
2.2200   0.0000  0.0000  0.0000 
