Radius  u_Mean u_Max u_Min u_RMS 
1.2200000e+00  1.4995970e+02  3.4661170e+02  2.5903632e-01 1.7274636e+02 
1.2356250e+00  1.4760958e+02  3.4387031e+02  4.5189025e+00 1.7032511e+02 
1.2512500e+00  1.4050444e+02  3.3246960e+02  9.7904174e+00 1.6255328e+02 
1.2668750e+00  1.3482446e+02  3.2326616e+02  1.3580749e+01 1.5611203e+02 
1.2825000e+00  1.2907330e+02  3.4322346e+02  1.7459736e+01 1.4966751e+02 
1.2981250e+00  1.2490668e+02  4.2590570e+02  2.0845370e+01 1.4517469e+02 
1.3137500e+00  1.2108925e+02  5.0616596e+02  2.4137437e+01 1.4137279e+02 
1.3293750e+00  1.1804277e+02  5.8300193e+02  2.7093103e+01 1.3864431e+02 
1.3450000e+00  1.1524733e+02  6.5595496e+02  2.9944007e+01 1.3650198e+02 
1.3606250e+00  1.1277253e+02  7.2447892e+02  3.2540827e+01 1.3486734e+02 
1.3762500e+00  1.1042739e+02  7.8817064e+02  3.4993258e+01 1.3361699e+02 
1.3918750e+00  1.0818466e+02  8.4693216e+02  3.7285706e+01 1.3257678e+02 
1.4075000e+00  1.0599550e+02  9.0048722e+02  3.9455400e+01 1.3175733e+02 
1.4231250e+00  1.0381024e+02  9.4905024e+02  4.1493300e+01 1.3099418e+02 
1.4387500e+00  1.0163283e+02  9.9245938e+02  4.3408323e+01 1.3032926e+02 
1.4543750e+00  9.9415746e+01  1.0311298e+03  4.5203123e+01 1.2963384e+02 
1.4700000e+00  9.7179782e+01  1.0650059e+03  4.6875894e+01 1.2894922e+02 
1.4856250e+00  9.4886041e+01  1.0945978e+03  4.8334845e+01 1.2818301e+02 
1.5012500e+00  9.2558216e+01  1.1199321e+03  4.9022503e+01 1.2737077e+02 
1.5168750e+00  9.0166656e+01  1.1416775e+03  4.8796153e+01 1.2645059e+02 
1.5325000e+00  8.7733617e+01  1.1599103e+03  4.7796591e+01 1.2545423e+02 
1.5481250e+00  8.5237708e+01  1.1749770e+03  4.6145385e+01 1.2434298e+02 
1.5637500e+00  8.2698846e+01  1.1869750e+03  4.3946410e+01 1.2314514e+02 
1.5793750e+00  8.0102887e+01  1.1963116e+03  4.1269685e+01 1.2183743e+02 
1.5950000e+00  7.7467864e+01  1.2030607e+03  3.8192920e+01 1.2044323e+02 
1.6106250e+00  7.4786547e+01  1.2075512e+03  3.4761425e+01 1.1894891e+02 
1.6262500e+00  7.2076627e+01  1.2098274e+03  3.1045311e+01 1.1737372e+02 
1.6418750e+00  6.9338794e+01  1.2101187e+03  2.7074218e+01 1.1571216e+02 
1.6575000e+00  6.6593765e+01  1.2084104e+03  2.2908553e+01 1.1398302e+02 
1.6731250e+00  6.3854526e+01  1.2049017e+03  1.8567000e+01 1.1219235e+02 
1.6887500e+00  6.1154221e+01  1.1995248e+03  1.3901476e+01 1.1036348e+02 
1.7043750e+00  5.8535512e+01  1.1891491e+03  9.1329068e+00 1.0851269e+02 
1.7200000e+00  5.6090360e+01  1.1840437e+03  4.3384574e+00 1.0666308e+02 
1.7356250e+00  5.4080493e+01  1.1739521e+03  1.3998258e-01 1.0480470e+02 
1.7512500e+00  5.3279502e+01  1.1620970e+03  3.3611901e+00 1.0295789e+02 
1.7668750e+00  5.3164202e+01  1.1483323e+03  7.1777001e+00 1.0117530e+02 
1.7825000e+00  5.3422979e+01  1.1326498e+03  1.0299389e+01 9.9478609e+01 
1.7981250e+00  5.3937265e+01  1.1148674e+03  1.2888600e+01 9.7879438e+01 
1.8137500e+00  5.4644850e+01  1.0949939e+03  1.5358751e+01 9.6382360e+01 
1.8293750e+00  5.5506711e+01  1.0727794e+03  1.7768193e+01 9.4983219e+01 
1.8450000e+00  5.6500344e+01  1.0482002e+03  1.9993966e+01 9.3698819e+01 
1.8606250e+00  5.7607831e+01  1.0210219e+03  2.2159763e+01 9.2518583e+01 
1.8762500e+00  5.8820525e+01  9.9123565e+02  2.4258424e+01 9.1471525e+01 
1.8918750e+00  6.0128252e+01  9.5863971e+02  2.6268521e+01 9.0535878e+01 
1.9075000e+00  6.1527559e+01  9.2325631e+02  2.8220020e+01 8.9753045e+01 
1.9231250e+00  6.3011027e+01  8.8495274e+02  3.0063368e+01 8.9090622e+01 
1.9387500e+00  6.4576133e+01  8.4380481e+02  3.1767811e+01 8.8606080e+01 
1.9543750e+00  6.6216185e+01  7.9978098e+02  3.3257939e+01 8.8260092e+01 
1.9700000e+00  6.7926956e+01  7.5303436e+02  3.4467036e+01 8.8125892e+01 
1.9856250e+00  6.9701393e+01  7.0366739e+02  3.5285394e+01 8.8159495e+01 
2.0012500e+00  7.1531269e+01  6.5193393e+02  3.5575681e+01 8.8441910e+01 
2.0168750e+00  7.3407316e+01  5.9857174e+02  3.5221363e+01 8.8923170e+01 
2.0325000e+00  7.5314569e+01  5.4339836e+02  3.3930356e+01 8.9675000e+01 
2.0481250e+00  7.7236135e+01  4.8768447e+02  3.1675414e+01 9.0632842e+01 
2.0637500e+00  7.9146565e+01  4.3053611e+02  2.9110387e+01 9.1834786e+01 
2.0793750e+00  8.1007300e+01  3.7389910e+02  2.6487324e+01 9.3179577e+01 
2.0950000e+00  8.2780080e+01  3.1754464e+02  2.3736698e+01 9.4650007e+01 
2.1106250e+00  8.4372500e+01  2.6305862e+02  2.0951383e+01 9.6054828e+01 
2.1262500e+00  8.5741880e+01  2.2713588e+02  1.8054176e+01 9.7323664e+01 
2.1418750e+00  8.6726442e+01  2.1329648e+02  1.5147166e+01 9.8156934e+01 
2.1575000e+00  8.7338904e+01  2.0395893e+02  1.2144746e+01 9.8548553e+01 
2.1731250e+00  8.7611095e+01  1.9712971e+02  9.1659843e+00 9.8571065e+01 
2.1887500e+00  8.7614259e+01  1.9186606e+02  6.1178546e+00 9.8307720e+01 
2.2043750e+00  8.8057571e+01  1.9117198e+02  3.1009519e+00 9.8779679e+01 
2.2200000e+00  8.8602422e+01  1.9196321e+02  1.7913802e-01 9.9392253e+01 
