Radius  u_Mean u_Max u_Min u_RMS 
1.2200000e+00  1.7293882e+02  3.2884399e+02  5.2541561e-01 1.9088366e+02 
1.2356250e+00  1.7493555e+02  3.3219759e+02  5.8803480e+00 1.9290967e+02 
1.2512500e+00  1.7633251e+02  3.3394179e+02  1.1365158e+01 1.9413101e+02 
1.2668750e+00  1.7700242e+02  3.3458330e+02  1.6760952e+01 1.9459629e+02 
1.2825000e+00  1.7703859e+02  3.3532468e+02  2.2205845e+01 1.9446367e+02 
1.2981250e+00  1.7647890e+02  3.4262162e+02  2.7282393e+01 1.9384290e+02 
1.3137500e+00  1.7545505e+02  3.9661802e+02  3.2392761e+01 1.9288653e+02 
1.3293750e+00  1.7403210e+02  4.5259489e+02  3.7326753e+01 1.9169536e+02 
1.3450000e+00  1.7229054e+02  5.0524178e+02  4.2089489e+01 1.9036242e+02 
1.3606250e+00  1.7027978e+02  5.5464326e+02  4.6713674e+01 1.8895145e+02 
1.3762500e+00  1.6804040e+02  6.0074978e+02  5.1174261e+01 1.8750391e+02 
1.3918750e+00  1.6560324e+02  6.4381384e+02  5.5478891e+01 1.8604904e+02 
1.4075000e+00  1.6298792e+02  6.8372696e+02  5.9629257e+01 1.8459615e+02 
1.4231250e+00  1.6021263e+02  7.2046626e+02  6.3620871e+01 1.8315174e+02 
1.4387500e+00  1.5728705e+02  7.5421358e+02  6.7453992e+01 1.8170854e+02 
1.4543750e+00  1.5422209e+02  7.8496170e+02  7.1125412e+01 1.8026124e+02 
1.4700000e+00  1.5102306e+02  8.1293778e+02  7.4632126e+01 1.7879641e+02 
1.4856250e+00  1.4769720e+02  8.3814350e+02  7.7822522e+01 1.7730472e+02 
1.5012500e+00  1.4424817e+02  8.6082296e+02  7.9148873e+01 1.7577281e+02 
1.5168750e+00  1.4068169e+02  8.8100626e+02  7.8507225e+01 1.7419213e+02 
1.5325000e+00  1.3700128e+02  8.9937670e+02  7.6501264e+01 1.7255276e+02 
1.5481250e+00  1.3321255e+02  9.1553888e+02  7.3484611e+01 1.7084949e+02 
1.5637500e+00  1.2931984e+02  9.2886227e+02  6.9699478e+01 1.6907725e+02 
1.5793750e+00  1.2532968e+02  9.4106773e+02  6.5314394e+01 1.6723516e+02 
1.5950000e+00  1.2124817e+02  9.5189338e+02  6.0499872e+01 1.6532316e+02 
1.6106250e+00  1.1708401e+02  9.6043765e+02  5.5324392e+01 1.6334477e+02 
1.6262500e+00  1.1284647e+02  9.6691267e+02  4.9840729e+01 1.6130449e+02 
1.6418750e+00  1.0854857e+02  9.7136277e+02  4.4086792e+01 1.5920972e+02 
1.6575000e+00  1.0420592e+02  9.7561879e+02  3.8114959e+01 1.5706876e+02 
1.6731250e+00  9.9841143e+01  9.7820619e+02  3.1877352e+01 1.5489224e+02 
1.6887500e+00  9.5485542e+01  9.7883936e+02  2.5346349e+01 1.5269145e+02 
1.7043750e+00  9.1189853e+01  9.7755724e+02  1.8679512e+01 1.5047991e+02 
1.7200000e+00  8.7042667e+01  9.7497313e+02  1.2009031e+01 1.4827105e+02 
1.7356250e+00  8.3236995e+01  9.7111965e+02  5.3866243e+00 1.4606787e+02 
1.7512500e+00  8.0435008e+01  9.6633719e+02  7.0899824e-02 1.4388208e+02 
1.7668750e+00  7.9752248e+01  9.6003163e+02  4.9107635e+00 1.4173741e+02 
1.7825000e+00  8.0072951e+01  9.5215755e+02  1.0264747e+01 1.3965919e+02 
1.7981250e+00  8.0940124e+01  9.4269124e+02  1.4113349e+01 1.3767169e+02 
1.8137500e+00  8.2180823e+01  9.3158095e+02  1.7650636e+01 1.3579854e+02 
1.8293750e+00  8.3704319e+01  9.1878436e+02  2.0965438e+01 1.3406220e+02 
1.8450000e+00  8.5456259e+01  9.0424727e+02  2.4152318e+01 1.3248300e+02 
1.8606250e+00  8.7401961e+01  8.8791053e+02  2.7159970e+01 1.3108053e+02 
1.8762500e+00  8.9517461e+01  8.6972532e+02  3.0111202e+01 1.2987209e+02 
1.8918750e+00  9.1785935e+01  8.4961893e+02  3.3021802e+01 1.2887511e+02 
1.9075000e+00  9.4193809e+01  8.2755789e+02  3.5919076e+01 1.2810534e+02 
1.9231250e+00  9.6730807e+01  8.0346051e+02  3.8798289e+01 1.2757963e+02 
1.9387500e+00  9.9386888e+01  7.7754306e+02  4.1693752e+01 1.2731349e+02 
1.9543750e+00  1.0215429e+02  7.4977935e+02  4.4584377e+01 1.2732406e+02 
1.9700000e+00  1.0502359e+02  7.1987888e+02  4.7349289e+01 1.2762620e+02 
1.9856250e+00  1.0798735e+02  6.8775523e+02  5.0071442e+01 1.2823589e+02 
2.0012500e+00  1.1103439e+02  6.5345505e+02  5.2699626e+01 1.2916400e+02 
2.0168750e+00  1.1415520e+02  6.1693473e+02  5.5136974e+01 1.3042063e+02 
2.0325000e+00  1.1733417e+02  5.7829738e+02  5.7277783e+01 1.3200625e+02 
2.0481250e+00  1.2055682e+02  5.3754944e+02  5.8876722e+01 1.3391771e+02 
2.0637500e+00  1.2380022e+02  4.9489550e+02  5.9611414e+01 1.3613695e+02 
2.0793750e+00  1.2704153e+02  4.5048498e+02  5.8903195e+01 1.3863919e+02 
2.0950000e+00  1.3024747e+02  4.0426106e+02  5.5806941e+01 1.4138030e+02 
2.1106250e+00  1.3338329e+02  3.5649754e+02  4.9814445e+01 1.4430699e+02 
2.1262500e+00  1.3640356e+02  3.0756199e+02  4.3198836e+01 1.4734486e+02 
2.1418750e+00  1.3925929e+02  2.8373823e+02  3.6342679e+01 1.5040755e+02 
2.1575000e+00  1.4189493e+02  2.8827877e+02  2.9297026e+01 1.5339023e+02 
2.1731250e+00  1.4425065e+02  2.9407568e+02  2.2102212e+01 1.5617322e+02 
2.1887500e+00  1.4627789e+02  2.9950685e+02  1.4731133e+01 1.5863730e+02 
2.2043750e+00  1.4792002e+02  3.0395322e+02  7.3670112e+00 1.6063785e+02 
2.2200000e+00  1.4918626e+02  3.0697064e+02  7.9367718e-01 1.6210288e+02 
