Radius  T_Mean T_Max T_Min 
1.2200   1.0000  1.0000  1.0000 
1.2356   0.9122  0.9963  0.8852 
1.2512   0.8282  0.9927  0.7767 
1.2669   0.7492  0.9892  0.6751 
1.2825   0.6761  0.9857  0.5820 
1.2981   0.6095  0.9823  0.4983 
1.3137   0.5495  0.9790  0.4242 
1.3294   0.4962  0.9758  0.3595 
1.3450   0.4493  0.9725  0.3036 
1.3606   0.4085  0.9694  0.2559 
1.3762   0.3732  0.9663  0.2156 
1.3919   0.3431  0.9632  0.1818 
1.4075   0.3176  0.9601  0.1537 
1.4231   0.2961  0.9571  0.1304 
1.4388   0.2783  0.9541  0.1111 
1.4544   0.2635  0.9511  0.0954 
1.4700   0.2514  0.9482  0.0826 
1.4856   0.2416  0.9455  0.0721 
1.5013   0.2339  0.9428  0.0635 
1.5169   0.2278  0.9400  0.0565 
1.5325   0.2232  0.9373  0.0508 
1.5481   0.2198  0.9345  0.0461 
1.5638   0.2174  0.9318  0.0422 
1.5794   0.2160  0.9291  0.0389 
1.5950   0.2152  0.9264  0.0362 
1.6106   0.2151  0.9237  0.0338 
1.6263   0.2156  0.9212  0.0318 
1.6419   0.2164  0.9186  0.0301 
1.6575   0.2176  0.9160  0.0285 
1.6731   0.2191  0.9136  0.0271 
1.6888   0.2208  0.9112  0.0259 
1.7044   0.2227  0.9088  0.0247 
1.7200   0.2248  0.9065  0.0237 
1.7356   0.2269  0.9040  0.0227 
1.7513   0.2291  0.9015  0.0217 
1.7669   0.2313  0.8993  0.0208 
1.7825   0.2335  0.8969  0.0199 
1.7981   0.2356  0.8946  0.0191 
1.8138   0.2377  0.8923  0.0183 
1.8294   0.2396  0.8901  0.0175 
1.8450   0.2414  0.8878  0.0167 
1.8606   0.2430  0.8855  0.0159 
1.8763   0.2444  0.8833  0.0151 
1.8919   0.2454  0.8812  0.0144 
1.9075   0.2460  0.8791  0.0136 
1.9231   0.2462  0.8769  0.0129 
1.9388   0.2458  0.8747  0.0121 
1.9544   0.2448  0.8726  0.0114 
1.9700   0.2431  0.8703  0.0107 
1.9856   0.2404  0.8678  0.0100 
2.0013   0.2367  0.8648  0.0093 
2.0169   0.2318  0.8611  0.0086 
2.0325   0.2256  0.8558  0.0079 
2.0481   0.2177  0.8479  0.0072 
2.0638   0.2081  0.8358  0.0065 
2.0794   0.1965  0.8171  0.0058 
2.0950   0.1827  0.7887  0.0051 
2.1106   0.1666  0.7477  0.0045 
2.1263   0.1482  0.6908  0.0038 
2.1419   0.1275  0.6159  0.0031 
2.1575   0.1047  0.5218  0.0025 
2.1731   0.0800  0.4094  0.0019 
2.1888   0.0540  0.2815  0.0012 
2.2044   0.0271  0.1435  0.0006 
2.2200   0.0000  0.0000  0.0000 
